Longitude[deg], Latitude[deg], Dust optical depth
2.258571929931640625e+02 -9.057299613952636719e+00 1.012950022864829158e+00
2.258115997314453125e+02 -9.054599761962890625e+00 8.628452084270077371e-01
2.257717895507812500e+02 -9.052199363708496094e+00 5.411801670548630483e-01
2.257433013916015625e+02 -9.050600051879882812e+00 1.347336233111163351e+00
2.257091979980468750e+02 -9.048600196838378906e+00 7.192968233404423151e-01
2.256636962890625000e+02 -9.045800209045410156e+00 5.566470445255804478e-01
2.256239013671875000e+02 -9.043399810791015625e+00 9.005867096398001426e-01
2.255840911865234375e+02 -9.040999412536621094e+00 5.626566398447010453e-01
2.255499877929687500e+02 -9.038999557495117188e+00 5.789850966728650183e-01
2.255045928955078125e+02 -9.036199569702148438e+00 7.482303855883140065e-01
2.254647979736328125e+02 -9.033800125122070312e+00 7.477634794474936619e-01
2.254193878173828125e+02 -9.031099319458007812e+00 1.385993063945649695e+00
2.253796997070312500e+02 -9.028699874877929688e+00 1.384275385447531814e+00
2.253342895507812500e+02 -9.025899887084960938e+00 9.336153663570744277e-01
2.252832946777343750e+02 -9.022699356079101562e+00 9.359584195846736288e-01
2.252435913085937500e+02 -9.020299911499023438e+00 7.752401160879138775e-01
2.252038879394531250e+02 -9.017899513244628906e+00 9.563125609712999076e-01
2.251529998779296875e+02 -9.014699935913085938e+00 9.646149543515124547e-01
2.251076965332031250e+02 -9.011899948120117188e+00 7.983177685928559697e-01
2.250679931640625000e+02 -9.009499549865722656e+00 9.645046605142894025e-01
2.250283966064453125e+02 -9.007100105285644531e+00 1.129143872547616834e+00
2.249774932861328125e+02 -9.003899574279785156e+00 1.130168604654147479e+00
2.249321899414062500e+02 -9.001099586486816406e+00 1.136027496964485461e+00
2.248925933837890625e+02 -8.998600006103515625e+00 9.888060858900851180e-01
2.248473968505859375e+02 -8.995800018310546875e+00 6.837770224198814750e-01
2.247964935302734375e+02 -8.992599487304687500e+00 4.762068217491869371e-01
2.247569885253906250e+02 -8.990099906921386719e+00 2.989760942996660953e-01
2.247173919677734375e+02 -8.987599372863769531e+00 8.319980418919268317e-01
2.246665954589843750e+02 -8.984399795532226562e+00 9.963399299072177584e-01
2.246156921386718750e+02 -8.981200218200683594e+00 8.427907447060756230e-01
2.245818939208984375e+02 -8.979100227355957031e+00 1.051872304123191021e-01
2.245422973632812500e+02 -8.976599693298339844e+00 6.689391528806897247e-01
2.244803009033203125e+02 -8.972599983215332031e+00 4.999035393053793408e-01
2.244350891113281250e+02 -8.969699859619140625e+00 1.176988775711927726e+00
2.244125976562500000e+02 -8.968400001525878906e+00 1.160390278940400116e-01
2.243618011474609375e+02 -8.965099334716796875e+00 8.646907418171785320e-01
2.242997894287109375e+02 -8.961099624633789062e+00 1.032798201649331560e+00
2.242659912109375000e+02 -8.958899497985839844e+00 1.518358106521476403e+00
2.242433929443359375e+02 -8.957599639892578125e+00 7.098476434042103600e-01
2.241814880371093750e+02 -8.953499794006347656e+00 3.465887541541579631e-01
2.241194915771484375e+02 -8.949500083923339844e+00 5.434209549901896086e-01
2.240856933593750000e+02 -8.947299957275390625e+00 8.924021417181213778e-01
2.240744018554687500e+02 -8.946700096130371094e+00 7.171035619963108676e-01
2.240236968994140625e+02 -8.943399429321289062e+00 1.701139008515871076e+00
2.239449005126953125e+02 -8.938199996948242188e+00 1.062472820274068974e+00
2.239167938232421875e+02 -8.936399459838867188e+00 9.070783478015456147e-01
2.239054870605468750e+02 -8.935799598693847656e+00 7.396538585896496043e-01
2.238604888916015625e+02 -8.932899475097656250e+00 7.337895611467204482e-01
2.237872924804687500e+02 -8.927999496459960938e+00 7.402947087627679279e-01
2.237480010986328125e+02 -8.925399780273437500e+00 9.190290230105974123e-01
2.237366943359375000e+02 -8.924799919128417969e+00 1.243363270600387649e+00
2.236972961425781250e+02 -8.922200202941894531e+00 1.083858497766371221e+00
2.236241912841796875e+02 -8.917300224304199219e+00 7.552000756090406774e-01
2.235847930908203125e+02 -8.914699554443359375e+00 5.832154423267279508e-01
2.235679931640625000e+02 -8.913700103759765625e+00 1.900253717768822237e-01
2.235229949951171875e+02 -8.910799980163574219e+00 9.380311757460247923e-01
2.234610900878906250e+02 -8.906599998474121094e+00 5.994721279667426517e-01
2.234217987060546875e+02 -8.903999328613281250e+00 7.676613652736304916e-01
2.233936920166015625e+02 -8.902199745178222656e+00 1.274453472239820417e+00
2.233486938476562500e+02 -8.899199485778808594e+00 1.110897800916341049e+00
2.232924957275390625e+02 -8.895400047302246094e+00 1.440226369948996776e+00
2.232586975097656250e+02 -8.893199920654296875e+00 1.283168204044023541e+00
2.232249908447265625e+02 -8.890999794006347656e+00 9.528240038242539178e-01
2.231799926757812500e+02 -8.887999534606933594e+00 7.859626898430743802e-01
2.231295013427734375e+02 -8.884599685668945312e+00 1.287882533930400530e+00
2.230956878662109375e+02 -8.882299423217773438e+00 1.286381557297201939e+00
2.230563964843750000e+02 -8.879699707031250000e+00 1.124181376836042690e+00
2.230113983154296875e+02 -8.876699447631835938e+00 9.655233939572580582e-01
2.229664916992187500e+02 -8.873600006103515625e+00 1.621443344873366055e+00
2.229270935058593750e+02 -8.870999336242675781e+00 1.625020488356017534e+00
2.228933868408203125e+02 -8.868700027465820312e+00 8.108876670402989095e-01
2.228483886718750000e+02 -8.865699768066406250e+00 1.967586216189216586e+00
2.228034973144531250e+02 -8.862599372863769531e+00 1.810212232640151075e+00
2.227640991210937500e+02 -8.859999656677246094e+00 1.659375961418710244e+00
2.227247924804687500e+02 -8.857299804687500000e+00 1.179809962009800373e+00
2.226853942871093750e+02 -8.854599952697753906e+00 8.411114404193187344e-01
2.226403961181640625e+02 -8.851499557495117188e+00 1.016804416686149182e+00
2.226010894775390625e+02 -8.848899841308593750e+00 1.186295125359909886e+00
2.225616912841796875e+02 -8.846199989318847656e+00 1.681101760307892601e+00
2.225167999267578125e+02 -8.843099594116210938e+00 5.051911719241495291e-01
2.224774017333984375e+02 -8.840399742126464844e+00 nan
2.224323883056640625e+02 -8.837299346923828125e+00 nan
2.223929901123046875e+02 -8.834599494934082031e+00 nan
2.223479919433593750e+02 -8.831500053405761719e+00 nan
2.223029937744140625e+02 -8.828299522399902344e+00 nan
2.222579956054687500e+02 -8.825200080871582031e+00 nan
2.222185974121093750e+02 -8.822500228881835938e+00 nan
2.221735992431640625e+02 -8.819399833679199219e+00 nan
2.221342010498046875e+02 -8.816599845886230469e+00 nan
2.220835876464843750e+02 -8.813099861145019531e+00 nan
2.220384979248046875e+02 -8.809899330139160156e+00 nan
2.219990997314453125e+02 -8.807199478149414062e+00 nan
2.219597015380859375e+02 -8.804399490356445312e+00 nan
2.219089965820312500e+02 -8.800799369812011719e+00 nan
2.218639984130859375e+02 -8.797599792480468750e+00 nan
2.218244934082031250e+02 -8.794899940490722656e+00 nan
2.217850952148437500e+02 -8.792099952697753906e+00 5.644099219384788313e-01
2.217343902587890625e+02 -8.788499832153320312e+00 1.571763036193082108e+00
2.216835937500000000e+02 -8.784899711608886719e+00 1.737272391218144252e+00
2.216497955322265625e+02 -8.782499313354492188e+00 1.408021396943909487e+00
2.216102905273437500e+02 -8.779699325561523438e+00 9.201979140639792165e-01
2.215652008056640625e+02 -8.776499748229980469e+00 7.677463951960123989e-01
2.215086975097656250e+02 -8.772399902343750000e+00 9.500568180379181937e-01
2.214691925048828125e+02 -8.769599914550781250e+00 1.123489812197533411e+00
2.214465942382812500e+02 -8.768099784851074219e+00 9.644341113505128238e-01
2.214013977050781250e+02 -8.764800071716308594e+00 2.095794913222399192e+00
2.213280944824218750e+02 -8.759399414062500000e+00 1.432712114454930852e+00
2.212829895019531250e+02 -8.756199836730957031e+00 1.096304165117274465e+00
2.212659912109375000e+02 -8.755100250244140625e+00 3.781787219756251039e-02
2.212433013916015625e+02 -8.753499984741210938e+00 9.633647012026209655e-01
2.211584930419921875e+02 -8.747200012207031250e+00 6.060936948278520253e-01
2.210906982421875000e+02 -8.742199897766113281e+00 7.540667184514480148e-01
2.210906982421875000e+02 -8.742400169372558594e+00 5.773752585629283729e-01
2.210737915039062500e+02 -8.741199493408203125e+00 1.892626006260749616e+00
2.209834899902343750e+02 -8.734499931335449219e+00 1.558169922710348931e+00
2.209494018554687500e+02 -8.732099533081054688e+00 1.338938897561949615e+00
2.209268951416015625e+02 -8.730500221252441406e+00 1.028248696291484965e+00
2.208473968505859375e+02 -8.724599838256835938e+00 1.122508986272173770e+00
2.208132934570312500e+02 -8.722099304199218750e+00 1.793191234089716257e+00
2.208416900634765625e+02 -8.724399566650390625e+00 1.122699203530641343e+00
2.207168884277343750e+02 -8.715000152587890625e+00 1.301625203512996709e+00
2.206374969482421875e+02 -8.708999633789062500e+00 1.482137903862977169e+00
2.206941986083984375e+02 -8.713500022888183594e+00 1.138274908044548672e+00
2.206374969482421875e+02 -8.709300041198730469e+00 1.319821196623317094e+00
2.205298919677734375e+02 -8.701099395751953125e+00 1.309130452852993454e+00
2.205242004394531250e+02 -8.700900077819824219e+00 1.323186979829080956e+00
2.204900970458984375e+02 -8.698399543762207031e+00 1.440438783609590212e+00
2.204332885742187500e+02 -8.694099426269531250e+00 6.572169478083872418e-01
2.258517913818359375e+02 -9.106800079345703125e+00 7.137722237516224144e-01
2.258118896484375000e+02 -9.104499816894531250e+00 1.192747851114636104e+00
2.257719879150390625e+02 -9.102099418640136719e+00 1.369164931701281507e+00
2.257434997558593750e+02 -9.100399971008300781e+00 5.742866000809296878e-01
2.257036895751953125e+02 -9.097999572753906250e+00 9.091409134383445778e-01
2.256694946289062500e+02 -9.095999717712402344e+00 1.063886763690511161e+00
2.256295928955078125e+02 -9.093599319458007812e+00 7.567312616247600099e-01
2.255840911865234375e+02 -9.090899467468261719e+00 5.946756532610435464e-01
2.255498962402343750e+02 -9.088799476623535156e+00 1.079981173648232762e+00
2.255043945312500000e+02 -9.086099624633789062e+00 1.242734778801924733e+00
2.254645996093750000e+02 -9.083700180053710938e+00 1.254301842126410715e+00
2.254191894531250000e+02 -9.080900192260742188e+00 7.915186464432694136e-01
2.253736877441406250e+02 -9.078100204467773438e+00 6.261022633868272846e-01
2.253339996337890625e+02 -9.075699806213378906e+00 1.133705134772855283e+00
2.252884979248046875e+02 -9.072899818420410156e+00 1.261761223332618531e+00
2.252430877685546875e+02 -9.070099830627441406e+00 1.264097033979155293e+00
2.251976928710937500e+02 -9.067299842834472656e+00 9.698942281254124831e-01
2.251579895019531250e+02 -9.064899444580078125e+00 1.130404070053431465e+00
2.251125946044921875e+02 -9.062099456787109375e+00 1.132898432372803743e+00
2.250615997314453125e+02 -9.058899879455566406e+00 1.295376756347332403e+00
2.250219879150390625e+02 -9.056399345397949219e+00 9.996496029899072377e-01
2.249765930175781250e+02 -9.053599357604980469e+00 1.160527357851318886e+00
2.249369964599609375e+02 -9.051199913024902344e+00 1.011560056410734765e+00
2.248860015869140625e+02 -9.047999382019042969e+00 6.863430186811465550e-01
2.248463897705078125e+02 -9.045499801635742188e+00 1.179818782756290263e+00
2.248067932128906250e+02 -9.043000221252441406e+00 1.161062549605425653e+00
2.247557983398437500e+02 -9.039799690246582031e+00 1.167944155958027475e+00
2.247104949951171875e+02 -9.036999702453613281e+00 8.526333793307346864e-01
2.246708984375000000e+02 -9.034500122070312500e+00 1.176204615399818243e+00
2.246257019042968750e+02 -9.031599998474121094e+00 8.568981510030050375e-01
2.245747985839843750e+02 -9.028399467468261719e+00 1.332809061150150853e+00
2.245295867919921875e+02 -9.025499343872070312e+00 1.348857579784557892e+00
2.244899902343750000e+02 -9.022999763488769531e+00 1.206372774291477157e+00
2.244391937255859375e+02 -9.019800186157226562e+00 1.198409590066136232e+00
2.243939971923828125e+02 -9.016900062561035156e+00 1.215295383041194555e+00
2.243600921630859375e+02 -9.014800071716308594e+00 1.051336500267125329e+00
2.243149871826171875e+02 -9.011899948120117188e+00 7.285935100911156148e-01
2.242584991455078125e+02 -9.008199691772460938e+00 1.606362158117371486e-01
2.242247009277343750e+02 -9.006099700927734375e+00 1.219099801332794497e+00
2.241963958740234375e+02 -9.004300117492675781e+00 3.672111889804763329e-01
2.241399993896484375e+02 -9.000599861145019531e+00 1.068644174722439555e+00
2.240835876464843750e+02 -8.996899604797363281e+00 1.071207024844565536e+00
2.240553894042968750e+02 -8.995200157165527344e+00 7.409922715189840581e-01
2.240271911621093750e+02 -8.993399620056152344e+00 7.425608887817340964e-01
2.239709014892578125e+02 -8.989699363708496094e+00 9.183117385266491572e-01
2.239144897460937500e+02 -8.986000061035156250e+00 1.235632370745425312e+00
2.238862915039062500e+02 -8.984199523925781250e+00 1.087822729446068726e+00
2.238580932617187500e+02 -8.982399940490722656e+00 9.301168528137534475e-01
2.237961883544921875e+02 -8.978300094604492188e+00 6.010511598075619633e-01
2.237453918457031250e+02 -8.974999427795410156e+00 2.076023102066289761e-01
2.237229003906250000e+02 -8.973599433898925781e+00 4.125592575390914507e-01
2.236890869140625000e+02 -8.971399307250976562e+00 6.038049361972279705e-01
2.236271972656250000e+02 -8.967299461364746094e+00 2.076012050844303347e-01
2.235820922851562500e+02 -8.964300155639648438e+00 9.562788380149725986e-01
2.235538940429687500e+02 -8.962499618530273438e+00 1.440549215633491364e+00
2.235144958496093750e+02 -8.959899902343750000e+00 4.157033344773592431e-01
2.234581909179687500e+02 -8.956099510192871094e+00 9.559888449781401842e-01
2.234187927246093750e+02 -8.953499794006347656e+00 9.630375661042220869e-01
2.233849945068359375e+02 -8.951299667358398438e+00 9.631251387814998566e-01
2.233399963378906250e+02 -8.948299407958984375e+00 7.921789654424427063e-01
2.232949981689453125e+02 -8.945300102233886719e+00 6.220674480516513727e-01
2.232555999755859375e+02 -8.942699432373046875e+00 6.250464503965397212e-01
2.232218017578125000e+02 -8.940499305725097656e+00 8.088769234248882611e-01
2.231767883300781250e+02 -8.937399864196777344e+00 9.806524076428880798e-01
2.231260986328125000e+02 -8.934000015258789062e+00 1.309957497895051226e+00
2.230923004150390625e+02 -8.931799888610839844e+00 1.311109190298603178e+00
2.230528869628906250e+02 -8.929100036621093750e+00 9.876081070778879312e-01
2.230078887939453125e+02 -8.926099777221679688e+00 9.933730520683604626e-01
2.229628906250000000e+02 -8.922999382019042969e+00 1.156378427751772353e+00
2.229290924072265625e+02 -8.920800209045410156e+00 1.648416653167080304e+00
2.228896942138671875e+02 -8.918099403381347656e+00 1.163467220620969744e+00
2.228446960449218750e+02 -8.915100097656250000e+00 1.331967882536226888e+00
2.228052978515625000e+02 -8.912400245666503906e+00 2.157229815747563340e+00
2.227602996826171875e+02 -8.909299850463867188e+00 1.348540037073453712e+00
2.227209014892578125e+02 -8.906700134277343750e+00 8.554060289765355041e-01
2.226757965087890625e+02 -8.903599739074707031e+00 4.996523367206376909e-01
2.226363983154296875e+02 -8.900899887084960938e+00 6.911937632797591213e-01
2.225970001220703125e+02 -8.898200035095214844e+00 1.039807536578294833e+00
2.225576019287109375e+02 -8.895500183105468750e+00 1.532947451386524662e+00
2.225125885009765625e+02 -8.892399787902832031e+00 1.536873463416768004e+00
2.224731903076171875e+02 -8.889699935913085938e+00 nan
2.224281005859375000e+02 -8.886599540710449219e+00 nan
2.223886871337890625e+02 -8.883899688720703125e+00 nan
2.223435974121093750e+02 -8.880800247192382812e+00 nan
2.222985992431640625e+02 -8.877599716186523438e+00 nan
2.222590942382812500e+02 -8.874899864196777344e+00 nan
2.222140960693359375e+02 -8.871799468994140625e+00 nan
2.221689910888671875e+02 -8.868599891662597656e+00 nan
2.221239013671875000e+02 -8.865499496459960938e+00 nan
2.220843963623046875e+02 -8.862699508666992188e+00 nan
2.220392913818359375e+02 -8.859600067138671875e+00 nan
2.219942016601562500e+02 -8.856399536132812500e+00 nan
2.219490966796875000e+02 -8.853199958801269531e+00 nan
2.219039916992187500e+02 -8.849999427795410156e+00 nan
2.218645019531250000e+02 -8.847299575805664062e+00 nan
2.218193969726562500e+02 -8.844099998474121094e+00 nan
2.217742919921875000e+02 -8.840899467468261719e+00 2.404006815993615653e+00
2.217290954589843750e+02 -8.837699890136718750e+00 1.429104342833624974e+00
2.216895904541015625e+02 -8.834899902343750000e+00 1.103485601406091865e+00
2.216445007324218750e+02 -8.831699371337890625e+00 1.104700890711333594e+00
2.215935974121093750e+02 -8.828000068664550781e+00 1.270269062271427662e+00
2.215540924072265625e+02 -8.825200080871582031e+00 1.280163649158827077e+00
2.215200958251953125e+02 -8.822799682617187500e+00 8.017671415689924252e-01
2.214748992919921875e+02 -8.819600105285644531e+00 6.457938137209680018e-01
2.214183959960937500e+02 -8.815499305725097656e+00 1.132048471120794764e+00
2.213731994628906250e+02 -8.812199592590332031e+00 1.122537793438176612e+00
2.213506011962890625e+02 -8.810699462890625000e+00 1.125166060874241092e+00
2.213109893798828125e+02 -8.807799339294433594e+00 9.615116553796745347e-01
2.212430877685546875e+02 -8.802899360656738281e+00 1.330305477611220422e+00
2.211864929199218750e+02 -8.798699378967285156e+00 6.401329693935535747e-01
2.211694946289062500e+02 -8.797599792480468750e+00 1.140928159160329747e+00
2.211581878662109375e+02 -8.796899795532226562e+00 1.135614662647945972e+00
2.210789947509765625e+02 -8.790999412536621094e+00 1.198368998901195859e+00
2.209933929443359375e+02 -8.784599304199218750e+00 1.030199582255801882e+00
2.209877014160156250e+02 -8.784299850463867188e+00 1.031943063720549336e+00
2.209821014404296875e+02 -8.784099578857421875e+00 1.507159844469586840e+00
2.208919982910156250e+02 -8.777299880981445312e+00 1.023190214298459466e+00
2.208524932861328125e+02 -8.774399757385253906e+00 1.621137712592664037e+00
2.208410949707031250e+02 -8.773699760437011719e+00 9.908003658034001404e-01
2.207501983642578125e+02 -8.766900062561035156e+00 1.273975787082239908e+00
2.207162017822265625e+02 -8.764399528503417969e+00 9.948031530725595095e-01
2.207388916015625000e+02 -8.766300201416015625e+00 7.901216943666745651e-01
2.206364898681640625e+02 -8.758600234985351562e+00 1.166076024715628101e+00
2.205570983886718750e+02 -8.752499580383300781e+00 6.452190248283812268e-01
2.205853881835937500e+02 -8.754899978637695312e+00 9.773557369762035929e-01
2.205399932861328125e+02 -8.751500129699707031e+00 1.156584760888026198e+00
2.204489898681640625e+02 -8.744599342346191406e+00 1.168501235773149016e+00
2.204261932373046875e+02 -8.743000030517578125e+00 1.179319317575573400e+00
2.258521881103515625e+02 -9.155900001525878906e+00 1.043712228851652268e+00
2.258064880371093750e+02 -9.153200149536132812e+00 1.065348689598234477e+00
2.257779998779296875e+02 -9.151499748229980469e+00 9.066227696972136707e-01
2.257494964599609375e+02 -9.149799346923828125e+00 7.403027794694819752e-01
2.257037963867187500e+02 -9.147099494934082031e+00 7.407521539907029329e-01
2.256638946533203125e+02 -9.144700050354003906e+00 1.071934825163247229e+00
2.256296997070312500e+02 -9.142700195312500000e+00 2.214670398165651810e-01
2.255897979736328125e+02 -9.140299797058105469e+00 1.087661200112959303e+00
2.255441894531250000e+02 -9.137499809265136719e+00 4.444967661868823861e-01
2.255043945312500000e+02 -9.135099411010742188e+00 1.098717666067858367e+00
2.254644927978515625e+02 -9.132699966430664062e+00 7.723353176005434140e-01
2.254188995361328125e+02 -9.129899978637695312e+00 2.487402761164498599e-01
2.253733978271484375e+02 -9.127099990844726562e+00 8.020368201999962254e-01
2.253278961181640625e+02 -9.124300003051757812e+00 9.439483196857424430e-01
2.252937927246093750e+02 -9.122200012207031250e+00 1.088060513429011111e+00
