Longitude[deg], Latitude[deg], Dust opacity
24.696800 7.835800 1.701049
24.709499 7.835400 1.389892
24.717499 7.835100 1.076486
24.724400 7.834700 1.074214
24.733599 7.834300 1.069634
24.742899 7.834000 1.687023
24.750900 7.833600 1.682674
24.758999 7.833300 1.055556
24.769400 7.832900 1.671776
24.777399 7.832500 1.668703
24.785500 7.832200 1.360818
24.793600 7.831800 1.362585
24.802799 7.831400 0.740328
24.812099 7.831100 1.059842
24.819000 7.830700 1.985990
24.828299 7.830300 1.675061
24.837500 7.830000 1.980768
24.845600 7.829600 1.980447
24.853699 7.829300 1.980152
24.861799 7.828900 1.673554
24.871000 7.828500 2.286860
24.879099 7.828200 2.296045
24.887299 7.827800 1.388498
24.896599 7.827400 2.002291
24.904699 7.827100 1.386631
24.912800 7.826700 1.373590
24.921999 7.826300 1.645111
24.930000 7.826000 1.301071
24.938099 7.825600 0.375350
24.947500 7.825200 1.006590
24.955599 7.824900 1.021723
24.963699 7.824500 1.648575
24.700100 7.823400 1.071923
24.713900 7.823000 0.749769
24.718500 7.822700 1.067401
24.726599 7.822300 1.064019
24.735800 7.821900 1.058696
24.742699 7.821600 1.053924
24.751900 7.821200 1.048985
24.760000 7.820800 1.045383
24.768099 7.820500 1.353211
24.777300 7.820100 1.662231
24.785398 7.819800 1.045852
24.793499 7.819400 1.046702
24.802700 7.819000 1.663340
24.810799 7.818700 1.663978
24.820099 7.818300 1.666459
24.828199 7.817900 0.735820
24.836300 7.817600 1.358149
24.845499 7.817200 1.359782
24.853600 7.816900 0.738728
24.861700 7.816500 1.670151
24.871000 7.816100 1.362106
24.879099 7.815800 0.411273
24.887199 7.815400 1.373827
24.895300 7.815000 1.067441
24.903399 7.814700 0.751659
24.912699 7.814300 1.059183
24.920799 7.813900 1.370980
24.928900 7.813600 1.693145
24.938099 7.813200 1.072591
24.946299 7.812800 1.721583
24.955599 7.812500 2.327862
24.963699 7.812100 1.692237
24.701099 7.811000 1.992022
24.713799 7.810600 1.369916
24.718399 7.810300 0.737825
24.726500 7.809900 0.735005
24.735699 7.809500 1.985440
24.743799 7.809200 2.291088
24.751799 7.808800 1.662706
24.759899 7.808500 1.035326
24.768000 7.808100 1.655044
24.777199 7.807700 1.962885
24.785299 7.807400 1.965140
24.794498 7.807000 1.965401
24.802599 7.806600 2.580125
24.810699 7.806300 2.274423
24.818800 7.805900 1.355834
24.828100 7.805500 1.356545
24.836199 7.805200 1.971543
24.845400 7.804800 1.972236
24.852400 7.804500 1.357698
24.861599 7.804100 1.665986
24.869699 7.803700 1.049913
24.879000 7.803400 1.665836
24.887100 7.803000 1.975291
24.895199 7.802600 1.669521
24.904499 7.802300 1.362458
24.912600 7.801900 1.054775
24.920700 7.801500 1.672231
24.930000 7.801200 1.059654
24.938099 7.800800 1.679261
24.946199 7.800400 1.679651
24.955500 7.800100 0.754667
24.963600 7.799700 1.378930
24.701000 7.798600 1.672524
24.713699 7.798200 1.050485
24.718300 7.797900 1.360825
24.726299 7.797500 1.670842
24.735600 7.797100 1.044704
24.742500 7.796800 1.975869
24.751699 7.796400 1.660306
24.759800 7.796100 1.657958
24.767899 7.795700 1.966302
24.777100 7.795300 1.656944
24.785200 7.795000 1.348071
24.793299 7.794600 1.962788
24.802500 7.794200 1.653656
24.810600 7.793900 1.660199
24.819899 7.793500 1.358026
24.827999 7.793200 1.358029
24.836100 7.792800 1.356801
24.845299 7.792400 1.355730
24.853399 7.792100 1.354835
24.861500 7.791700 1.047087
24.869600 7.791300 0.039352
24.878899 7.791000 0.395209
24.886999 7.790600 1.046343
24.896299 7.790200 1.048405
24.903200 7.789900 2.278271
24.912498 7.789500 2.279043
24.920599 7.789100 1.050625
24.929899 7.788800 1.049362
24.938000 7.788400 1.969093
24.946100 7.788100 1.662155
24.954300 7.787700 1.052982
24.963600 7.787300 0.748528
24.700899 7.786200 0.733553
24.713499 7.785800 1.044511
24.718100 7.785500 1.353497
24.726200 7.785100 1.351335
24.735399 7.784700 1.039358
24.742399 7.784400 1.036496
24.751600 7.784000 1.032945
24.759699 7.783700 1.340590
24.767700 7.783300 1.337850
24.776999 7.782900 1.957206
24.785099 7.782600 1.031348
24.793200 7.782200 1.033681
24.802399 7.781800 1.653087
24.810499 7.781500 1.363639
24.819799 7.781100 1.672840
24.827900 7.780800 0.401747
24.835999 7.780400 1.047372
24.844099 7.780000 1.045088
24.853399 7.779700 1.043874
24.861500 7.779300 0.726184
24.869499 7.778900 0.387785
24.878799 7.778600 1.343625
24.886900 7.778200 1.653816
24.896200 7.777800 1.352701
24.904299 7.777500 1.046419
24.912399 7.777100 1.046207
24.920599 7.776800 1.045108
24.928699 7.776400 1.041857
24.937899 7.776000 1.037987
24.946100 7.775700 1.041225
24.955399 7.775300 1.663970
24.963499 7.774900 1.669802
24.699600 7.773800 1.668435
24.713400 7.773400 1.666170
24.717999 7.773100 1.040494
24.726099 7.772700 1.661928
24.735300 7.772300 1.659065
24.742199 7.772000 1.654338
24.751499 7.771600 1.026255
24.759499 7.771300 1.952449
24.767599 7.770900 1.327911
24.776899 7.770500 1.331766
24.785000 7.770200 1.030064
24.793098 7.769800 1.963377
24.802299 7.769500 0.739784
24.810499 7.769100 1.374760
24.819700 7.768700 1.984075
24.827799 7.768400 1.971711
24.835899 7.768000 1.351849
24.845200 7.767600 1.350852
24.853300 7.767300 1.350279
24.861399 7.766900 1.349865
24.869499 7.766600 1.657413
24.877600 7.766200 1.965196
24.886900 7.765800 1.659359
24.896099 7.765400 1.969905
24.904299 7.765100 1.966998
24.912399 7.764700 1.657087
24.920500 7.764400 1.963181
24.928600 7.764000 0.724261
24.937899 7.763600 1.348436
24.945999 7.763300 1.352133
24.954199 7.762900 0.736476
24.963499 7.762500 1.359840
24.700600 7.761400 1.663871
24.713299 7.761000 1.349665
24.717899 7.760700 0.714361
24.726000 7.760300 1.656964
24.735199 7.760000 1.341494
24.742100 7.759600 2.582958
24.751299 7.759200 0.355369
24.759399 7.758900 1.325676
24.768599 7.758500 1.322550
24.776800 7.758200 1.023035
24.783699 7.757800 1.655711
24.794199 7.757400 2.292159
24.802299 7.757100 0.753109
24.810400 7.756700 3.533689
24.819599 7.756300 1.362452
24.827700 7.756000 1.659893
24.835800 7.755600 1.658642
24.843899 7.755300 2.274798
24.853199 7.754900 1.348973
24.861300 7.754500 1.041779
24.869400 7.754200 0.727559
24.878700 7.753800 0.729335
24.886799 7.753400 1.044146
24.894899 7.753100 1.350201
24.904200 7.752700 1.655628
24.912300 7.752300 1.654263
24.920399 7.752000 2.268908
24.928600 7.751600 1.345804
24.937799 7.751200 1.653649
24.945999 7.750900 1.654398
24.954100 7.750500 1.040418
24.963400 7.750100 1.963173
24.700499 7.749000 1.655705
24.713200 7.748600 1.030450
24.717800 7.748300 1.338797
24.725800 7.747900 0.701273
24.735100 7.747600 1.643909
24.741999 7.747200 1.330179
24.751200 7.746800 1.016055
24.759300 7.746500 1.325609
24.768599 7.746100 1.639544
24.776699 7.745800 1.649548
24.784800 7.745400 1.065362
24.792900 7.745000 1.382930
24.802200 7.744700 1.378863
24.810299 7.744300 1.365257
24.819599 7.743900 1.656146
24.827700 7.743600 1.655331
24.835800 7.743200 1.037289
24.844999 7.742900 1.963283
24.853100 7.742500 1.345785
24.861198 7.742100 1.654653
24.869400 7.741800 1.347281
24.878599 7.741400 1.037357
24.886700 7.741000 1.649904
24.894899 7.740700 2.265223
24.904099 7.740300 1.341873
24.912300 7.739900 1.034507
24.920399 7.739600 1.342263
24.929699 7.739200 1.342140
24.937799 7.738800 1.035133
24.945900 7.738500 1.956956
24.955200 7.738100 1.342997
24.963299 7.737700 1.958949
24.700300 7.736600 1.643977
24.712999 7.736200 1.329992
24.717600 7.735900 1.016779
24.725698 7.735500 1.013865
24.734999 7.735200 1.635340
24.741899 7.734800 1.013296
24.751099 7.734500 1.945781
24.759199 7.734100 1.945339
24.767300 7.733700 1.637015
24.776600 7.733400 1.349043
24.784698 7.733000 1.068708
24.793999 7.732600 1.690000
24.802099 7.732300 1.060404
24.810200 7.731900 1.045480
24.819500 7.731600 1.345061
24.827599 7.731200 1.343519
24.835699 7.730800 3.196262
24.844900 7.730500 2.268407
24.853100 7.730100 1.650504
24.861198 7.729700 1.650934
24.869299 7.729400 1.343007
24.878599 7.729000 1.958838
24.886700 7.728600 1.341009
24.894800 7.728300 1.032325
24.904099 7.727900 2.570552
24.912199 7.727500 1.645888
24.920300 7.727200 1.952854
24.928400 7.726800 2.260377
24.937700 7.726500 2.260358
24.945900 7.726100 1.645578
24.953999 7.725700 1.338863
24.963299 7.725400 0.719272
24.698999 7.724200 1.322199
24.712900 7.723800 2.243246
24.717499 7.723500 1.623205
24.725599 7.723200 2.552973
24.734798 7.722800 1.626109
24.741800 7.722400 1.939106
24.750999 7.722100 1.013356
24.759100 7.721700 1.943962
24.767199 7.721300 1.637799
24.776499 7.721000 1.355367
24.784599 7.720600 1.060300
24.792700 7.720300 1.053202
24.802000 7.719900 1.658062
24.810099 7.719500 0.715726
24.819399 7.719200 1.648770
24.827499 7.718800 1.339736
24.835600 7.718400 1.956785
24.844900 7.718100 1.956047
24.852999 7.717700 1.646911
24.861099 7.717300 1.955363
24.869200 7.717000 1.647181
24.877300 7.716600 1.955017
24.886599 7.716300 1.337861
24.895899 7.715900 1.335415
24.902800 7.715500 1.027204
24.912100 7.715200 1.334087
24.920198 7.714800 1.948295
24.928400 7.714400 1.332851
24.937700 7.714100 1.640296
24.945799 7.713700 1.332127
24.955099 7.713300 1.332535
24.963200 7.713000 1.645767
24.699999 7.711800 1.939430
24.712700 7.711500 1.621738
24.717400 7.711100 1.620209
24.725500 7.710800 1.617934
24.734699 7.710400 1.002447
24.741699 7.710000 1.931612
24.750900 7.709700 1.935369
24.758999 7.709300 1.937615
24.768299 7.709000 1.330320
24.776400 7.708600 1.340255
24.784500 7.708200 0.718767
24.792599 7.707900 1.954407
24.801899 7.707500 1.644386
24.809999 7.707100 1.952852
24.819300 7.706800 1.644468
24.827400 7.706400 1.645496
24.835499 7.706100 1.953835
24.844799 7.705700 1.953129
24.852900 7.705300 1.644197
24.861000 7.705000 1.952391
24.869099 7.704600 1.027717
24.878399 7.704200 1.027335
24.886499 7.703900 1.950550
24.894600 7.703500 1.948618
24.903900 7.703100 1.946573
24.912100 7.702800 1.637720
24.920198 7.702400 1.944490
24.929499 7.702000 2.251731
24.937599 7.701700 1.943792
24.945700 7.701300 1.943773
24.955000 7.700900 1.638626
24.963200 7.700600 2.259246
24.698799 7.699500 1.625756
24.712599 7.699100 1.308874
24.717199 7.698700 0.998315
24.725300 7.698400 1.000755
24.734600 7.698000 1.615199
24.742699 7.697700 1.927301
24.750799 7.697300 1.932686
24.758900 7.696900 1.630011
24.768200 7.696600 0.366878
24.776299 7.696200 1.641284
24.784399 7.695800 1.949909
24.793699 7.695500 0.706749
24.801800 7.695100 1.644054
24.809900 7.694800 1.952966
24.817999 7.694400 1.952940
24.827299 7.694000 1.643944
24.835400 7.693700 1.951558
24.844700 7.693300 1.950273
24.852798 7.692900 1.949292
24.860899 7.692600 1.333115
24.868999 7.692200 1.024873
24.878300 7.691800 1.332559
24.886499 7.691500 1.332129
24.894600 7.691100 1.638823
24.903900 7.690700 1.020114
24.911999 7.690400 1.018505
24.920099 7.690000 1.325434
24.928200 7.689700 1.940235
24.937500 7.689300 1.632743
24.945700 7.688900 1.326072
24.953800 7.688600 1.634891
24.963099 7.688200 0.707478
24.699799 7.687100 1.611219
24.712500 7.686700 1.606616
24.717100 7.686300 1.916798
24.725199 7.686000 0.992470
24.733299 7.685600 1.613105
24.742599 7.685300 1.005950
24.750700 7.684900 1.318395
24.758799 7.684500 1.322774
24.766899 7.684200 1.943317
24.776199 7.683800 2.257826
24.784300 7.683500 1.332591
24.792398 7.683100 2.259519
24.801699 7.682700 0.705966
24.809799 7.682400 1.951422
24.817900 7.682000 1.641973
24.827200 7.681600 1.641399
24.835299 7.681300 1.331348
24.844599 7.680900 1.638656
24.852699 7.680500 1.329333
24.860800 7.680200 1.021313
24.870100 7.679800 1.329632
24.878199 7.679400 1.021549
24.886400 7.679100 1.329065
24.894499 7.678700 1.634301
24.903799 7.678400 2.247047
24.911900 7.678000 1.629790
24.920099 7.677600 2.244434
24.929300 7.677300 0.360558
24.937500 7.676900 1.628307
24.945599 7.676500 1.321241
24.954899 7.676200 0.698467
24.963099 7.675800 2.246070
24.698500 7.674700 1.918667
24.712299 7.674300 1.295965
24.716999 7.674000 0.666258
24.725100 7.673600 1.300819
24.734400 7.673200 1.616657
24.741299 7.672900 1.006699
24.750599 7.672500 1.625924
24.758699 7.672200 2.245000
24.766800 7.671800 1.940930
24.776100 7.671400 1.636153
24.784199 7.671100 1.326267
24.792299 7.670700 1.326580
24.801600 7.670300 1.638689
24.809700 7.670000 1.948056
24.819000 7.669600 1.638469
24.827099 7.669200 1.638158
24.835199 7.668900 1.636905
24.844500 7.668500 1.635191
24.852600 7.668200 1.325426
24.860800 7.667800 1.942183
24.869999 7.667400 1.633680
24.878199 7.667100 1.017008
24.886299 7.666700 1.016519
24.894400 7.666300 1.321776
24.903700 7.666000 1.626480
24.911900 7.665600 1.933016
24.920000 7.665200 1.624222
24.928099 7.664900 1.623713
24.937399 7.664500 1.930812
24.945599 7.664100 0.690716
24.954899 7.663800 1.624307
24.962999 7.663400 1.014015
24.698299 7.660800 1.919943
24.712200 7.660400 1.584127
24.716900 7.660000 1.616228
24.724998 7.659700 1.311715
24.734200 7.659300 1.625706
24.741199 7.659000 1.010708
24.750500 7.658600 1.319491
24.758600 7.658200 2.245590
24.767899 7.657900 2.556491
24.775999 7.657500 1.017025
24.784100 7.657100 1.325447
24.793400 7.656800 1.943826
24.801500 7.656400 1.636565
24.809599 7.656000 1.636190
24.818899 7.655700 1.016077
24.827000 7.655300 1.943556
24.835100 7.655000 1.323581
24.843199 7.654600 1.322312
24.852499 7.654200 1.320818
24.860699 7.653900 1.320266
24.868799 7.653500 1.936554
24.876900 7.653100 1.936069
24.886200 7.652800 1.318797
24.894299 7.652400 1.316045
24.903599 7.652000 1.929453
24.911798 7.651700 1.928316
24.919899 7.651300 2.236166
24.929199 7.650900 1.927828
24.937399 7.650600 1.620032
24.945499 7.650200 1.620733
24.954800 7.649800 2.237803
24.962999 7.649500 1.936138
24.699400 7.648400 1.602493
24.712099 7.648000 0.994301
24.716799 7.647600 1.307128
24.724899 7.647300 1.312865
24.733000 7.646900 1.622922
24.741100 7.646600 1.623437
24.750399 7.646200 1.624567
24.758499 7.645800 1.009807
24.766600 7.645500 1.012237
24.775900 7.645100 1.014904
24.783998 7.644800 0.697392
24.793299 7.644400 1.013368
24.801399 7.644000 1.632443
24.809500 7.643700 1.631844
24.818800 7.643300 1.630687
24.826899 7.642900 1.320295
24.834999 7.642600 0.352646
24.844299 7.642200 2.552625
24.852400 7.641800 0.689322
24.860600 7.641500 1.931912
24.869900 7.641100 1.623235
24.878000 7.640700 1.622487
24.886099 7.640400 1.621591
24.895399 7.640000 2.235350
24.903599 7.639600 1.617835
24.911699 7.639300 1.309258
24.919800 7.638900 nan
24.927999 7.638600 1.001229
24.937300 7.638200 0.683859
24.945400 7.637800 1.310374
24.953600 7.637500 1.312792
24.962900 7.637100 1.318023
24.699200 7.636000 1.594690
24.712000 7.635600 0.993280
24.716599 7.635300 0.682713
24.724800 7.634900 0.684219
24.733999 7.634500 1.615052
24.740999 7.634200 1.925870
24.749100 7.633800 1.617643
24.758400 7.633500 1.619811
24.767700 7.633100 1.624044
24.775799 7.632700 1.934786
24.783899 7.632400 1.934885
24.792000 7.632000 1.316114
24.801300 7.631600 1.935986
24.809399 7.631300 1.005262
24.818699 7.630900 1.624506
24.826799 7.630500 1.004530
24.834900 7.630200 1.931481
24.844200 7.629800 1.620578
24.852400 7.629500 1.619103
24.860498 7.629100 1.618327
24.868599 7.628700 1.926320
24.877899 7.628400 2.541941
24.886000 7.628000 1.616623
24.895399 7.627600 0.999798
24.903500 7.627300 0.344535
24.911600 7.626900 0.680844
24.919800 7.626500 1.921918
24.929100 7.626200 1.613537
24.937199 7.625800 1.613160
24.945400 7.625400 0.344210
24.953499 7.625100 1.306782
24.962900 7.624700 1.617215
24.697899 7.623600 2.201693
24.711899 7.623200 0.989503
24.716499 7.622900 2.226618
24.724600 7.622500 1.616349
24.733900 7.622200 1.299795
24.741999 7.621800 1.919336
24.750099 7.621400 1.920614
24.758299 7.621100 1.614207
24.766399 7.620700 2.236724
24.775700 7.620300 1.624074
24.783800 7.620000 1.004760
24.791899 7.619600 1.004233
24.801199 7.619300 1.312771
24.809299 7.618900 1.311828
24.817400 7.618500 1.001067
24.826700 7.618200 1.000706
24.834799 7.617800 1.618457
24.844099 7.617400 1.616911
24.852299 7.617100 1.615714
24.860399 7.616700 1.924183
24.869699 7.616300 1.616133
24.877800 7.616000 1.616342
24.886000 7.615600 2.540590
24.894100 7.615200 1.923919
24.903399 7.614900 1.307164
24.911600 7.614500 1.614160
24.919699 7.614200 1.613227
24.927900 7.613800 1.920238
24.937199 7.613400 1.919631
24.945299 7.613100 1.611730
24.954599 7.612700 0.998228
24.962799 7.612300 1.615948
24.698900 7.611200 1.552764
24.711699 7.610800 1.288092
24.716400 7.610500 0.991217
24.724499 7.610100 1.915512
24.733799 7.609800 1.291339
24.741899 7.609400 0.980625
24.750000 7.609000 1.600769
24.758099 7.608700 0.992925
24.767399 7.608300 1.618624
24.775599 7.608000 2.240410
24.783699 7.607600 2.236741
24.792999 7.607200 1.311074
24.801100 7.606900 1.620099
24.809200 7.606500 0.997732
24.818499 7.606100 1.306202
24.826599 7.605800 1.614847
24.834700 7.605400 1.304607
24.842899 7.605100 2.230116
24.852200 7.604700 0.677035
24.860300 7.604300 0.678546
24.868399 7.604000 1.613973
24.877800 7.603600 0.680847
24.885899 7.603200 2.232416
24.893999 7.602900 1.616474
24.903399 7.602500 1.614309
24.911499 7.602100 1.920278
24.919600 7.601800 1.919436
24.928999 7.601400 1.918877
24.937099 7.601000 0.677129
24.945299 7.600700 1.303319
24.954599 7.600300 1.919843
24.962700 7.599900 1.306271
24.697599 7.598800 0.940760
24.711599 7.598500 1.590621
24.716200 7.598100 1.291365
24.724298 7.597800 1.596868
24.732500 7.597400 1.586877
24.741699 7.597000 0.313271
24.749899 7.596700 0.976576
24.757999 7.596300 1.599320
24.766100 7.595900 1.607654
24.774300 7.595600 1.920950
24.783600 7.595200 1.299972
24.792799 7.594900 0.984764
24.800999 7.594500 2.535058
24.809099 7.594100 1.604149
24.817200 7.593800 2.532271
24.826500 7.593400 0.668963
24.834599 7.593000 1.297917
24.843899 7.592700 1.914719
24.852098 7.592300 1.608110
24.860199 7.591900 2.225855
24.868399 7.591600 1.919251
24.877699 7.591200 2.229713
24.885799 7.590800 1.923590
24.893999 7.590500 1.308353
24.902100 7.590100 1.305200
24.911400 7.589700 0.993760
24.919600 7.589400 2.225754
24.927700 7.589000 0.339155
24.937000 7.588700 nan
24.945200 7.588300 1.917171
24.954500 7.587900 0.995912
24.962700 7.587600 0.678956
24.698599 7.586500 0.635276
24.711399 7.586100 2.512362
24.716099 7.585700 1.283615
24.724199 7.585400 2.194468
24.733500 7.585000 1.264914
24.740400 7.584700 2.493571
24.749699 7.584300 1.891644
24.757900 7.583900 1.590944
24.767199 7.583600 1.593859
24.775299 7.583200 1.283705
24.783400 7.582800 0.973014
24.791500 7.582500 0.962052
24.800800 7.582100 1.273897
24.809000 7.581700 1.588972
24.818300 7.581400 0.979358
24.826399 7.581000 1.290634
24.834499 7.580700 1.292289
24.843800 7.580300 1.601989
24.851999 7.579900 1.603998
24.860100 7.579600 1.606286
24.869400 7.579200 1.300780
24.877600 7.578800 1.919760
24.885700 7.578500 1.306854
24.895100 7.578100 1.923539
24.901999 7.577700 1.304819
24.911400 7.577400 1.609399
24.919498 7.577000 1.608228
24.927700 7.576600 1.299328
24.937000 7.576300 0.335682
24.945099 7.575900 1.298214
24.953299 7.575500 1.606694
24.962599 7.575200 1.916182
24.698500 7.574100 1.556230
24.711300 7.573700 0.954192
24.715899 7.573400 1.570240
24.723999 7.573000 1.567599
24.733299 7.572600 1.259515
24.741499 7.572300 1.270673
24.749599 7.571900 0.974169
24.757700 7.571500 1.283730
24.765900 7.571200 1.591290
24.775200 7.570800 1.282017
24.783298 7.570500 0.655156
24.792599 7.570100 0.319925
24.800699 7.569700 0.656893
24.808899 7.569400 1.596902
24.818199 7.569000 1.904172
24.826300 7.568600 0.979760
24.834400 7.568300 1.595484
24.842600 7.567900 1.288275
24.851900 7.567500 2.213269
24.859999 7.567200 1.292215
24.869299 7.566800 0.668916
24.876299 7.566500 0.989842
24.885700 7.566100 0.994280
24.894999 7.565700 nan
24.903099 7.565400 1.918022
24.911299 7.565000 1.606469
24.919399 7.564600 0.670617
24.928799 7.564300 2.219369
24.936899 7.563900 1.294959
24.945099 7.563500 0.987223
24.954399 7.563200 1.603026
24.962599 7.562800 0.988431
24.697199 7.561700 0.620972
24.711100 7.561300 1.253437
24.715799 7.561000 1.562780
24.723900 7.560600 0.635759
24.733200 7.560300 1.578348
24.741299 7.559900 0.650650
24.749500 7.559500 1.590893
24.757599 7.559200 1.283360
24.765699 7.558800 1.899503
